Time, Max density, Central density
   4.6616435964252486E-007    49999997938.56022         49999944319.60624     
   9.3232871906326018E-007    49999997959.90005         49999944765.17582     
   1.3984930779747217E-006    49999998396.59136         49999945459.46406     
   1.8646574361168697E-006    49999999680.34898         49999946411.27341     
   2.3308217932113694E-006    50000005045.68797         49999947627.99663     
   2.7969861489498011E-006    50000014207.88792         49999949122.57123     
   3.2631505029969444E-006    50000024197.38976         49999950911.41650     
   3.7293148549912627E-006    50000034740.83366         49999953010.35301     
   4.1954792045459028E-006    50000045613.34696         49999955431.35158     
   4.6616435512562983E-006    50000056698.58548         49999958182.64699     
   5.1278078947105983E-006    50000067982.18990         49999961271.55526     
   5.5939722344944529E-006    50000079510.79723         49999964706.39941     
   6.0601365701884395E-006    50000091308.36272         49999968495.60783     
   6.5263009013631165E-006    50000103347.73064         49999972647.16139     
   6.9924652275750792E-006    50000115619.56804         49999977167.99584     
   7.4586295483634128E-006    50000128116.18346         49999982065.11385     
   7.9247938632456135E-006    50000140830.71040         49999987345.56687     
   8.3909581717069038E-006    50000153752.72038         49999993016.15977     
   8.8571224731076138E-006    50000166866.51844         49999999083.01317     
   9.3232867642093095E-006    50000180148.92686         50000005551.53680     
   9.7894510472411003E-006    50000193568.21427         50000012426.88828     
   1.0255615321686598E-005    50000207088.33405         50000019714.84419     
   1.0721779586966004E-005    50000220671.45722         50000027418.76059     
   1.1187943842468613E-005    50000234282.19056         50000035540.47960     
   1.1654108087559301E-005    50000247892.67065         50000044079.37594     
   1.2120272321582708E-005    50000261488.33668         50000053031.54573     
   1.2586436543866109E-005    50000275074.75288         50000062389.35508     
   1.3052600753721818E-005    50000288684.21824         50000072141.60391     
   1.3518764950450537E-005    50000302382.13343         50000082274.49641     
   1.3984929133347882E-005    50000316270.65427         50000092773.43628     
   1.4451093301713299E-005    50000330486.67720         50000103625.36799     
   1.4917257454859602E-005    50000345193.53373         50000114821.06030     
   1.5383421592128451E-005    50000360570.33634         50000126356.58338     
   1.5849585712888469E-005    50000376783.14285         50000138233.41914     
   1.6315749816539766E-005    50000393997.37403         50000150457.11192     
   1.6781913902523212E-005    50000412262.32607         50000163034.97147     
   1.7248077970302244E-005    50000431520.68706         50000175974.80903     
   1.7714242019351208E-005    50000451650.77818         50000189288.12092     
   1.8180406049141405E-005    50000472464.31853         50000202992.13557     
   1.8646570059127318E-005    50000493760.58957         50000217103.00313     
   1.9112734048737897E-005    50000515361.26595         50000231632.47636     
   1.9578898017370509E-005    50000537132.05253         50000246590.51134     
   2.0045061964391265E-005    50000558938.52842         50000261984.21127     
   2.0511225889139297E-005    50000580697.08818         50000277820.18131     
   2.0977389790928944E-005    50000602369.99006         50000294104.04615     
   2.1443553669054741E-005    50000623984.15368         50000310839.80327     
   2.1909717522800059E-005    50000645611.86188         50000328029.55808     
   2.2375881351438728E-005    50000667335.77391         50000345675.88327     
   2.2842045154239461E-005    50000689234.50338         50000363785.05154     
   2.3308208930456745E-005    50000711374.89374         50000382365.76652     
   2.3774372679325395E-005    50000733816.08603         50000401425.37889     
   2.4240536400071453E-005    50000756609.54920         50000420966.36427     
   2.4706700091911347E-005    50000779786.43843         50000440990.42863     
   2.5172863754054682E-005    50000803344.32392         50000461500.96112     
   2.5639027385705008E-005    50000827267.20488         50000482501.51971     
   2.6105190986057147E-005    50000851544.82198         50000503995.06891     
   2.6571354554292460E-005    50000876158.19012         50000525985.49361     
   2.7037518089584843E-005    50000901080.74734         50000548477.04399     
   2.7503681591107513E-005    50000926260.55264         50000571472.87057     
   2.7969845058025495E-005    50000951653.61936         50000594974.52809     
   2.8436008489493871E-005    50000977231.40307         50000618981.99815     
   2.8902171884645035E-005    50001002983.72160         50000643494.21423     
   2.9368335242608695E-005    50001028907.69626         50000668509.13657     
   2.9834498562520176E-005    50001055010.35002         50000694025.89046     
   3.0300661843504360E-005    50001081306.96820         50000720045.17230     
   3.0766825084679910E-005    50001107818.59531         50000746568.58322     
   3.1232988285164617E-005    50001134565.92007         50000773597.91429     
   3.1699151444076967E-005    50001161564.33148         50000801134.72272     
   3.2165314560537077E-005    50001188819.10133         50000829180.21409     
   3.2631477633667582E-005    50001216316.57281         50000857735.26228     
   3.3097640662594554E-005    50001244460.33481         50000886800.55448     
   3.3563803646448112E-005    50001273262.24126         50000916376.61451     
   3.4029966584363258E-005    50001301790.62547         50000946462.77161     
   3.4496129475481338E-005    50001329788.03661         50000977056.04269     
   3.4962292318951673E-005    50001357009.34902         50001008150.61915     
   3.5428455113933566E-005    50001383227.01984         50001039738.77228     
   3.5894617859597224E-005    50001408229.66967         50001071812.88216     
   3.6360780555118686E-005    50001431811.42902         50001104365.98820     
   3.6826943199687613E-005    50001453670.93197         50001137389.03848     
   3.7293105792523664E-005    50001473098.58481         50001170868.32135     
   3.7759268332875114E-005    50001489082.35300         50001204778.86221     
   3.8225430820025251E-005    50001500715.54871         50001239075.72504     
   3.8691593253314745E-005    50001507409.57469         50001273691.25064     
   3.9157755632185449E-005    50001508911.61195         50001308535.44734     
   3.9623917956218183E-005    50001505162.54946         50001343490.24578     
   4.0090080225171067E-005    50001495843.12057         50001378414.32928     
   4.0556242439017337E-005    50001480059.72627         50001413143.94100     
   4.1022404597976346E-005    50001459688.75248         50001447494.32790     
   4.1488566702557758E-005    50001481118.19566         50001481118.19566     
   4.1954728753795433E-005    50001513553.07478         50001513553.07478     
   4.2420890753354862E-005    50001544303.18880         50001544303.18880     
   4.2887052703720970E-005    50001573201.66560         50001573201.66560     
   4.3353214607786548E-005    50001600307.63132         50001600307.63132     
   4.3819376468159179E-005    50001624623.03888         50001624623.03888     
   4.4285538289074996E-005    50001646432.97116         50001646432.97116     
   4.4751700074403815E-005    50001665721.82576         50001665721.82576     
   4.5217861828001289E-005    50001683399.68434         50001682476.64117     
   4.5684023553774313E-005    50001698915.85923         50001696808.83399     
   4.6150185255511327E-005    50001712232.82207         50001708979.10250     
   4.6616346936648005E-005    50001723642.01551         50001719314.82374     
   4.7082508600133764E-005    50001733472.70879         50001728141.14571     
   4.7548670248402270E-005    50001742009.52474         50001735730.03642     
   4.8014831883445035E-005    50001749402.01373         50001742202.04935     
   4.8480993507021548E-005    50001755635.61632         50001747529.38873     
   4.8947155120915303E-005    50001760866.73023         50001751887.26221     
   4.9413316726673320E-005    50001765200.79233         50001755319.50207     
   4.9879478325685261E-005    50001768388.44693         50001757538.39315     
   5.0345639919726990E-005    50001770169.06992         50001758319.85089     
   5.0811801510976823E-005    50001770446.05202         50001757619.64577     
   5.1277963101760897E-005    50001769241.27782         50001755485.80062     
   5.1744124694369547E-005    50001766635.79913         50001752012.07945     
   5.2210286290965581E-005    50001762757.66113         50001747334.70818     
   5.2676447893509433E-005    50001757765.25046         50001741616.10725     
   5.3142609503718987E-005    50001751810.73709         50001735010.73113     
   5.3608771123079743E-005    50001745039.70221         50001727679.52068     
   5.4074932752852283E-005    50001737660.19826         50001719874.25591     
   5.4541094393977042E-005    50001730041.47304         50001712046.81487     
   5.5007256046826526E-005    50001722803.39815         50001704960.56335     
   5.5473417710817767E-005    50001716921.91382         50001699734.21256     
   5.5939579383856207E-005    50001713429.03345         50001697020.01516     
   5.6405741062242989E-005    50001711876.80708         50001695538.96225     
   5.6871902742964073E-005    50001710389.41107         50001693552.07404     
   5.7338064425917684E-005    50001707931.72623         50001690580.02440     
   5.7804226112611569E-005    50001704756.53369         50001687279.90187     
   5.8270387804159272E-005    50001702045.50589         50001685033.16608     
   5.8736549499846817E-005    50001701218.16791         50001685040.17896     
   5.9202711196766233E-005    50001702822.77910         50001687392.60876     
   5.9668872891166139E-005    50001706349.32548         50001691392.26182     
   6.0135034580082009E-005    50001711018.65262         50001696315.34657     
   6.0601196261751525E-005    50001716257.30793         50001701683.08065     
   6.1067357935294187E-005    50001721718.66891         50001707213.82800     
   6.1533519600365550E-005    50001727207.17098         50001712745.82670     
   6.1999681256923514E-005    50001732608.15579         50001718183.39479     
   6.2465842905106924E-005    50001737847.46627         50001723466.40844     
   6.2932004545167207E-005    50001742879.83196         50001728552.93673     
   6.3398166177425978E-005    50001747674.16894         50001733410.24952     
   6.3864327802250659E-005    50001752207.60978         50001738014.09826     
   6.4330489420041565E-005    50001756462.20016         50001742345.94177     
   6.4796651031225004E-005    50001760422.82641         50001746389.67229     
   6.5262812636252004E-005    50001764076.14451         50001750131.18361     
   6.5728974235595603E-005    50001767410.34438         50001753557.64394     
   6.6195135829746728E-005    50001770415.43740         50001756658.81747     
   6.6661297419211835E-005    50001773081.51564         50001759429.06053     
   6.7127459004514488E-005    50001775399.46392         50001761860.88361     
   6.7593620586193316E-005    50001777360.82786         50001763945.76299     
   6.8059782164801399E-005    50001778957.63080         50001765674.75223     
   6.8525943740902197E-005    50001780182.25830         50001767038.46042     
   6.8992105315070283E-005    50001781027.37222         50001768029.34325     
   6.9458266887890583E-005    50001781485.86620         50001768642.70742     
   6.9924428459957675E-005    50001781550.90620         50001768874.60190     
   7.0390590031880310E-005    50001781216.05838         50001768720.84278     
   7.0856751604278111E-005    50001780475.37174         50001768177.18863     
   7.1322913177779629E-005    50001779323.41321         50001767239.65493     
   7.1789074753019489E-005    50001777755.23282         50001765904.63435     
   7.2255236330635839E-005    50001775766.33451         50001764168.95993     
   7.2721397911277262E-005    50001773352.78709         50001762029.61945     
   7.3187559495573151E-005    50001770510.98873         50001759483.28781     
   7.3653721084172591E-005    50001767237.39920         50001756525.74774     
   7.4119882677739873E-005    50001763528.56533         50001753151.78926     
   7.4586044276959940E-005    50001759380.58940         50001749355.53339     
   7.5052205882510326E-005    50001754789.66721         50001745130.83284     
   7.5518367495072938E-005    50001749761.09256         50001740471.41405     
   7.5984529115349485E-005    50001744293.37819         50001735368.59906     
   7.6450690744037423E-005    50001738368.42540         50001729815.09256     
   7.6916852381843297E-005    50001731980.76318         50001723804.41755     
   7.7383014029481340E-005    50001725125.17810         50001717330.58385     
   7.7849175687673658E-005    50001717796.90694         50001710388.09113     
   7.8315337357150568E-005    50001709991.74735         50001702971.55659     
   7.8781499038649871E-005    50001701706.12794         50001695075.52292     
   7.9247660732914584E-005    50001692937.13559         50001686694.61382     
   7.9713822440691072E-005    50001683682.42571         50001677823.88501     
   8.0179984162728491E-005    50001673939.98678         50001668459.03370     
   8.0646145899779020E-005    50001663707.95582         50001658596.28745     
   8.1112307652598254E-005    50001652984.54981         50001648232.32963     
   8.1578469421944889E-005    50001641768.06985         50001637365.01886     
   8.2044631208580280E-005    50001630056.94643         50001625993.87968     
   8.2510793013267908E-005    50001617849.83418         50001614119.16230     
   8.2976954836773260E-005    50001605145.73923         50001601740.94697     
   8.3443116679863546E-005    50001591944.12924         50001588859.06784     
   8.3909278543307450E-005    50001578244.92694         50001575473.16870     
   8.4375440427874310E-005    50001564056.63691         50001561582.74171     
   8.4841602334333774E-005    50001549372.09281         50001547187.42332     
   8.5307764263461329E-005    50001534190.56654         50001532286.91914     
   8.5773926216013859E-005    50001518512.37740         50001516880.79953     
   8.6240088192749938E-005    50001502337.70610         50001500968.25732     
   8.6706250194435854E-005    50001485713.04392         50001484555.70419     
   8.7172412221775918E-005    50001468838.14510         50001467803.86855     
   8.7638574275156160E-005    50001451735.23640         50001450809.21129     
   8.8104736354930151E-005    50001434410.72501         50001433573.88583     
   8.8570898461445691E-005    50001416860.08262         50001416099.87859     
   8.9037060595045998E-005    50001399085.45363         50001398388.65321     
   8.9503222756073827E-005    50001381088.87052         50001380441.14526     
   8.9969384944870907E-005    50001362872.22701         50001362258.33625     
   9.0435547161775982E-005    50001344437.39824         50001343844.10217     
   9.0901709407125385E-005    50001325786.35278         50001325202.49426     
   9.1367871681252049E-005    50001306921.21042         50001306336.12433     
   9.1834033984485949E-005    50001287844.29342         50001287248.65934     
   9.2300196317154204E-005    50001268579.80474         50001267941.04826     
   9.2766358679580895E-005    50001249105.91036         50001248412.71665     
   9.3232521072087081E-005    50001229424.14116         50001228669.51538     
   9.3698683494990935E-005    50001209536.24191         50001208713.57695     
   9.4164845948607593E-005    50001189445.99613         50001188545.31055     
   9.4631008433248697E-005    50001169154.97192         50001168166.58284     
   9.5097170949218622E-005    50001148664.22257         50001147580.42102     
   9.5563333496819901E-005    50001127975.50183         50001126791.07298     
   9.6029496076347506E-005    50001107092.21840         50001105801.82649     
   9.6495658688088289E-005    50001086016.96442         50001084615.53928     
   9.6961821332328018E-005    50001064766.37913         50001063235.76254     
   9.7427984009349495E-005    50001043348.01077         50001041665.73814     
   9.7894146719429461E-005    50001021753.51435         50001019907.97576     
   9.8360309462843941E-005    50000999984.76036         50000997964.34923     
   9.8826472239871047E-005    50000978040.24442         50000975836.41386     
   9.9292635050787060E-005    50000955921.62148         50000953525.63690     
   9.9758797895861554E-005    50000933630.79020         50000931033.45635     
   1.0022496077536230E-004    50000911169.99338         50000908361.18645     
   1.0069112368955777E-004    50000888547.84041         50000885509.92707     
   1.0115728663871329E-004    50000865757.57882         50000862480.60587     
   1.0162344962309911E-004    50000842800.28351         50000839274.23795     
   1.0208961264295978E-004    50000819675.86637         50000815892.31014     
   1.0255577569854630E-004    50000796383.58818         50000792336.96224     
   1.0302193879011611E-004    50000772922.85024         50000768610.83247     
   1.0348810191792933E-004    50000749293.50613         50000744716.95422     
   1.0395426508224851E-004    50000725495.62772         50000720657.85904     
   1.0442042828333660E-004    50000701529.51470         50000696435.55533     
   1.0488659152145700E-004    50000677395.54214         50000672051.64780     
   1.0535275479687304E-004    50000653093.96561         50000647507.23221     
   1.0581891810984745E-004    50000628624.93636         50000622802.64279     
   1.0628508146064235E-004    50000603989.01372         50000597937.19963     
   1.0675124484952029E-004    50000579194.15002         50000572909.65063     
   1.0721740827674507E-004    50000554231.05099         50000547718.84265     
   1.0768357174258220E-004    50000529097.96136         50000522363.62519     
   1.0814973524729927E-004    50000503792.32663         50000496842.66029     
   1.0861589879116574E-004    50000478310.83310         50000471154.74078     
   1.0908206237445125E-004    50000452649.60057         50000445299.22601     
   1.0954822599742783E-004    50000426804.26434         50000419274.84633     
   1.1001438966037566E-004    50000400769.98846         50000393077.18893     
   1.1048055336358241E-004    50000374541.33909         50000366699.16664     
   1.1094671710734818E-004    50000348112.17587         50000340132.81720     
   1.1141288089198277E-004    50000321475.52734         50000313369.72359     
   1.1187904471780525E-004    50000294623.40351         50000286400.85221     
   1.1234520858514951E-004    50000267546.66625         50000259216.55261     
   1.1281137249436534E-004    50000240235.15096         50000231806.66594     
   1.1327753644581849E-004    50000212677.09620         50000204160.58527     
   1.1374370043989287E-004    50000184859.20748         50000176266.73999     
   1.1420986447699315E-004    50000156766.51265         50000148112.12766     
   1.1467602855754742E-004    50000128382.14554         50000119681.93363     
   1.1514219268200990E-004    50000099687.09656         50000090959.22077     
   1.1560835685086412E-004    50000070659.91288         50000061924.61935     
   1.1607452106462646E-004    50000041276.32938         50000032555.97273     
   1.1654068532385060E-004    50000011508.80579         50000002827.91960     
   1.1700684962913250E-004    49999981325.95026         49999972711.39626     
   1.1747301398111663E-004    49999950691.80472         49999942173.04739     
